0	-0.005712
0.002	-0.025452
0.004	-0.044613
0.006	-0.062022
0.008	-0.076887
0.01	-0.089328
0.012	-0.100343
0.014	-0.110705
0.016	-0.120022
0.018	-0.127238
0.02	-0.131752
0.022	-0.133491
0.024	-0.13263
0.026	-0.129775
0.028	-0.125811
0.03	-0.121617
0.032	-0.117732
0.034	-0.113996
0.036	-0.109689
0.038	-0.104101
0.04	-0.097066
0.042	-0.089072
0.044	-0.081235
0.046	-0.074801
0.048	-0.070247
0.05	-0.066977
0.052	-0.063809
0.054	-0.059734
0.056	-0.054396
0.058	-0.048421
0.06	-0.042909
0.062	-0.038532
0.064	-0.035514
0.066	-0.033624
0.068	-0.032272
0.07	-0.031031
0.072	-0.029553
0.074	-0.027683
0.076	-0.025949
0.078	-0.025155
0.08	-0.025663
0.082	-0.027239
0.084	-0.02923
0.086	-0.030928
0.088	-0.031709
0.09	-0.031297
0.092	-0.030023
0.094	-0.02861
0.096	-0.02791
0.098	-0.028327
0.1	-0.029371
0.102	-0.030164
0.104	-0.030095
0.106	-0.028865
0.108	-0.02667
0.11	-0.024273
0.112	-0.022354
0.114	-0.021155
0.116	-0.020592
0.118	-0.020172
0.12	-0.018999
0.122	-0.016278
0.124	-0.012078
0.126	-0.007426
0.128	-0.003597
0.13	-0.001308
0.132	-0.000455
0.134	-0.000398
0.136	-0.000371
0.138	0.000333
0.14	0.002179
0.142	0.004959
0.144	0.0079
0.146	0.010258
0.148	0.011652
0.15	0.012237
0.152	0.012652
0.154	0.01371
0.156	0.016049
0.158	0.019658
0.16	0.023738
0.162	0.027223
0.164	0.029504
0.166	0.030792
0.168	0.031776
0.17	0.033132
0.172	0.035545
0.174	0.039572
0.176	0.04501
0.178	0.050785
0.18	0.055703
0.182	0.059378
0.184	0.062407
0.186	0.065635
0.188	0.069707
0.19	0.075008
0.192	0.081263
0.194	0.087583
0.196	0.093165
0.198	0.097642
0.2	0.101181
0.202	0.104377
0.204	0.107831
0.206	0.112022
0.208	0.116998
0.21	0.121928
0.212	0.125704
0.214	0.127958
0.216	0.129159
0.218	0.129942
0.22	0.130709
0.222	0.131725
0.224	0.132992
0.226	0.134066
0.228	0.134302
0.23	0.133255
0.232	0.130831
0.234	0.127278
0.236	0.123168
0.238	0.119212
0.24	0.115772
0.242	0.112424
0.244	0.108298
0.246	0.102741
0.248	0.095491
0.25	0.086903
0.252	0.07788
0.254	0.069185
0.256	0.061282
0.258	0.054231
0.26	0.047421
0.262	0.04009
0.264	0.03193
0.266	0.023035
0.268	0.013848
0.27	0.005144
0.272	-0.002376
0.274	-0.008552
0.276	-0.013872
0.278	-0.019098
0.28	-0.024844
0.282	-0.031358
0.284	-0.038266
0.286	-0.044787
0.288	-0.050243
0.29	-0.054228
0.292	-0.057033
0.294	-0.059621
0.296	-0.06277
0.298	-0.066684
0.3	-0.071042
0.302	-0.075135
0.304	-0.07828
0.306	-0.080153
0.308	-0.080785
0.31	-0.080578
0.312	-0.080286
0.314	-0.080662
0.316	-0.082005
0.318	-0.083772
0.32	-0.084873
0.322	-0.084648
0.324	-0.083329
0.326	-0.081596
0.328	-0.080032
0.33	-0.079194
0.332	-0.079571
0.334	-0.080944
0.336	-0.082529
0.338	-0.083633
0.34	-0.083736
0.342	-0.082824
0.344	-0.081581
0.346	-0.081005
0.348	-0.081885
0.35	-0.084208
0.352	-0.0872
0.354	-0.089724
0.356	-0.090671
0.358	-0.089767
0.36	-0.087861
0.362	-0.086123
0.364	-0.085201
0.366	-0.085097
0.368	-0.085388
0.37	-0.08534
0.372	-0.084286
0.374	-0.082147
0.376	-0.079559
0.378	-0.077368
0.38	-0.076214
0.382	-0.076503
0.384	-0.078091
0.386	-0.080042
0.388	-0.081215
0.39	-0.081089
0.392	-0.079976
0.394	-0.078646
0.396	-0.077844
0.398	-0.078125
0.4	-0.079533
0.402	-0.0812
0.404	-0.081979
0.406	-0.081439
0.408	-0.080109
0.41	-0.078815
0.412	-0.077986
0.414	-0.077926
0.416	-0.078866
0.418	-0.080293
0.42	-0.081053
0.422	-0.08023
0.424	-0.077649
0.426	-0.073969
0.428	-0.070275
0.43	-0.067525
0.432	-0.066412
0.434	-0.066931
0.436	-0.068223
0.438	-0.069169
0.44	-0.06905
0.442	-0.068076
0.444	-0.067195
0.446	-0.067198
0.448	-0.068233
0.45	-0.070044
0.452	-0.072088
0.454	-0.073392
0.456	-0.073133
0.458	-0.071413
0.46	-0.069139
0.462	-0.067317
0.464	-0.066657
0.466	-0.067502
0.468	-0.069538
0.47	-0.071722
0.472	-0.072981
0.474	-0.073055
0.476	-0.072435
0.478	-0.071679
0.48	-0.071237
0.482	-0.071466
0.484	-0.072403
0.486	-0.073594
0.488	-0.074257
0.49	-0.07401
0.492	-0.073267
0.494	-0.072871
0.496	-0.073348
0.498	-0.074602
0.5	-0.076481
0.502	-0.078673
0.504	-0.080187
0.506	-0.080122
0.508	-0.078552
0.51	-0.076268
0.512	-0.074249
0.514	-0.0731
0.516	-0.072964
0.518	-0.073702
0.52	-0.074657
0.522	-0.075028
0.524	-0.074538
0.526	-0.073509
0.528	-0.072535
0.53	-0.072063
0.532	-0.072325
0.534	-0.073315
0.536	-0.074604
0.538	-0.075428
0.54	-0.075153
0.542	-0.07382
0.544	-0.072132
0.546	-0.070777
0.548	-0.070068
0.55	-0.070068
0.552	-0.070518
0.554	-0.070671
0.556	-0.069789
0.558	-0.067825
0.56	-0.065441
0.562	-0.063501
0.564	-0.062455
0.566	-0.062238
0.568	-0.062689
0.57	-0.063372
0.572	-0.063317
0.574	-0.062021
0.576	-0.060046
0.578	-0.058297
0.58	-0.057382
0.582	-0.057537
0.584	-0.058812
0.586	-0.060811
0.588	-0.062558
0.59	-0.06324
0.592	-0.062873
0.594	-0.062224
0.596	-0.062065
0.598	-0.062595
0.6	-0.063693
0.602	-0.065137
0.604	-0.066296
0.606	-0.066231
0.608	-0.064769
0.61	-0.062888
0.612	-0.061674
0.614	-0.061519
0.616	-0.062306
0.618	-0.063801
0.62	-0.065422
0.622	-0.066227
0.624	-0.06568
0.626	-0.064055
0.628	-0.062182
0.63	-0.060967
0.632	-0.060922
0.634	-0.061993
0.636	-0.063555
0.638	-0.064567
0.64	-0.064378
0.642	-0.063255
0.644	-0.061842
0.646	-0.060662
0.648	-0.060104
0.65	-0.060437
0.652	-0.061565
0.654	-0.062544
0.656	-0.062177
0.658	-0.060439
0.66	-0.058278
0.662	-0.056495
0.664	-0.055404
0.666	-0.055038
0.668	-0.055261
0.67	-0.055453
0.672	-0.054762
0.674	-0.052992
0.676	-0.05089
0.678	-0.049443
0.68	-0.049198
0.682	-0.050481
0.684	-0.053199
0.686	-0.056513
0.688	-0.059295
0.69	-0.060679
0.692	-0.060671
0.694	-0.060068
0.696	-0.059703
0.698	-0.060002
0.7	-0.061033
0.702	-0.062627
0.704	-0.064228
0.706	-0.065094
0.708	-0.065052
0.71	-0.064661
0.712	-0.064433
0.714	-0.064397
0.716	-0.064485
0.718	-0.064638
0.72	-0.064485
0.722	-0.063469
0.724	-0.061633
0.726	-0.059758
0.728	-0.058477
0.73	-0.05808
0.732	-0.058693
0.734	-0.059986
0.736	-0.061267
0.738	-0.061718
0.74	-0.060695
0.742	-0.058271
0.744	-0.055268
0.746	-0.052653
0.748	-0.050814
0.75	-0.049578
0.752	-0.048733
0.754	-0.047928
0.756	-0.046376
0.758	-0.043727
0.76	-0.040662
0.762	-0.037942
0.764	-0.035879
0.766	-0.034535
0.768	-0.03362
0.77	-0.032484
0.772	-0.030401
0.774	-0.027102
0.776	-0.023129
0.778	-0.019461
0.78	-0.016852
0.782	-0.015502
0.784	-0.015077
0.786	-0.014938
0.788	-0.014475
0.79	-0.01341
0.792	-0.011944
0.794	-0.010804
0.796	-0.011066
0.798	-0.013332
0.8	-0.01731
0.802	-0.022288
0.804	-0.027261
0.806	-0.03104
0.808	-0.033131
0.81	-0.034288
0.812	-0.035579
0.814	-0.037331
0.816	-0.039415
0.818	-0.041751
0.82	-0.044091
0.822	-0.045738
0.824	-0.046145
0.826	-0.045721
0.828	-0.045399
0.83	-0.045837
0.832	-0.04717
0.834	-0.049135
0.836	-0.051241
0.838	-0.052621
0.84	-0.052448
0.842	-0.05082
0.844	-0.048524
0.846	-0.046178
0.848	-0.044074
0.85	-0.042326
0.852	-0.040869
0.854	-0.039091
0.856	-0.035711
0.858	-0.029912
0.86	-0.022053
0.862	-0.012765
0.864	-0.002319
0.866	0.008981
0.868	0.020812
0.87	0.033256
0.872	0.046803
0.874	0.061442
0.876	0.075761
0.878	0.087808
0.88	0.096382
0.882	0.100943
0.884	0.100994
0.886	0.096231
0.888	0.087305
0.89	0.075532
0.892	0.061506
0.894	0.045018
0.896	0.026395
0.898	0.006564
0.9	-0.013645
0.902	-0.033289
0.904	-0.05121
0.906	-0.066188
0.908	-0.077509
0.91	-0.085731
0.912	-0.092071
0.914	-0.097139
0.916	-0.100835
0.918	-0.10302
0.92	-0.103671
0.922	-0.102628
0.924	-0.099681
0.926	-0.095052
0.928	-0.089545
0.93	-0.084
0.932	-0.07883
0.934	-0.074185
0.936	-0.070028
0.938	-0.065877
0.94	-0.061054
0.942	-0.055556
0.944	-0.050126
0.946	-0.045275
0.948	-0.04108
0.95	-0.037588
0.952	-0.034734
0.954	-0.032132
0.956	-0.029052
0.958	-0.025096
0.96	-0.020959
0.962	-0.017792
0.964	-0.016001
0.966	-0.015237
0.968	-0.015054
0.97	-0.015049
0.972	-0.014777
0.974	-0.013798
0.976	-0.012243
0.978	-0.011021
0.98	-0.01074
0.982	-0.01128
0.984	-0.012267
0.986	-0.013328
0.988	-0.014104
0.99	-0.013991
0.992	-0.012695
0.994	-0.010771
0.996	-0.008998
0.998	-0.007767
1	-0.00703
1.002	-0.006648
1.004	-0.006414
1.006	-0.005837
1.008	-0.004675
1.01	-0.003361
1.012	-0.002396
1.014	-0.001967
1.016	-0.002041
1.018	-0.002283
1.02	-0.002247
1.022	-0.00155
1.024	0.000102
1.026	0.002574
1.028	0.005092
1.03	0.006772
1.032	0.007239
1.034	0.006747
1.036	0.00602
1.038	0.005938
1.04	0.006991
1.042	0.009048
1.044	0.011692
1.046	0.014424
1.048	0.016845
1.05	0.018872
1.052	0.020711
1.054	0.022943
1.056	0.026232
1.058	0.030502
1.06	0.034967
1.062	0.038933
1.064	0.042259
1.066	0.04523
1.068	0.047933
1.07	0.050358
1.072	0.053234
1.074	0.057462
1.076	0.062915
1.078	0.068672
1.08	0.07387
1.082	0.078175
1.084	0.08175
1.086	0.085122
1.088	0.089217
1.09	0.094649
1.092	0.100911
1.094	0.106937
1.096	0.112015
1.098	0.115918
1.1	0.118781
1.102	0.120968
1.104	0.123022
1.106	0.125704
1.108	0.129438
1.11	0.133689
1.112	0.137461
1.114	0.140254
1.116	0.142127
1.118	0.143382
1.12	0.144479
1.122	0.145792
1.124	0.147382
1.126	0.148853
1.128	0.149244
1.13	0.147743
1.132	0.144561
1.134	0.140402
1.136	0.135737
1.138	0.130807
1.14	0.125726
1.142	0.120617
1.144	0.115289
1.146	0.109122
1.148	0.101665
1.15	0.092936
1.152	0.083594
1.154	0.074738
1.156	0.067157
1.158	0.060842
1.16	0.055143
1.162	0.049202
1.164	0.042424
1.166	0.034786
1.168	0.026672
1.17	0.018548
1.172	0.010935
1.174	0.00442
1.176	-0.000872
1.178	-0.005716
1.18	-0.011125
1.182	-0.017581
1.184	-0.024889
1.186	-0.032142
1.188	-0.038228
1.19	-0.042748
1.192	-0.046086
1.194	-0.048755
1.196	-0.05109
1.198	-0.053547
1.2	-0.056722
1.202	-0.060346
1.204	-0.063227
1.206	-0.064654
1.208	-0.064701
1.21	-0.063929
1.212	-0.063244
1.214	-0.063229
1.216	-0.063868
1.218	-0.06487
1.22	-0.06573
1.222	-0.06575
1.224	-0.064416
1.226	-0.061814
1.228	-0.058625
1.23	-0.055735
1.232	-0.05376
1.234	-0.052796
1.236	-0.052283
1.238	-0.05138
1.24	-0.049798
1.242	-0.047762
1.244	-0.045637
1.246	-0.043807
1.248	-0.042428
1.25	-0.0415
1.252	-0.040806
1.254	-0.039816
1.256	-0.038168
1.258	-0.036054
1.26	-0.033964
1.262	-0.032375
1.264	-0.031635
1.266	-0.031886
1.268	-0.032959
1.27	-0.034319
1.272	-0.035352
1.274	-0.035718
1.276	-0.035422
1.278	-0.034717
1.28	-0.033991
1.282	-0.033557
1.284	-0.033513
1.286	-0.033608
1.288	-0.033343
1.29	-0.032618
1.292	-0.031802
1.294	-0.031106
1.296	-0.03058
1.298	-0.030584
1.3	-0.031513
1.302	-0.033048
1.304	-0.034393
1.306	-0.035117
1.308	-0.035177
1.31	-0.034586
1.312	-0.033775
1.314	-0.033334
1.316	-0.033227
1.318	-0.033216
1.32	-0.033135
1.322	-0.032707
1.324	-0.031743
1.326	-0.030222
1.328	-0.028433
1.33	-0.026994
1.332	-0.026248
1.334	-0.026018
1.336	-0.02612
1.338	-0.026282
1.34	-0.025931
1.342	-0.025001
1.344	-0.024063
1.346	-0.02364
1.348	-0.023932
1.35	-0.024942
1.352	-0.02642
1.354	-0.027803
1.356	-0.02867
1.358	-0.029045
1.36	-0.029221
1.362	-0.029615
1.364	-0.030527
1.366	-0.031956
1.368	-0.033592
1.37	-0.034861
1.372	-0.03528
1.374	-0.034889
1.376	-0.034263
1.378	-0.03399
1.38	-0.034271
1.382	-0.035107
1.384	-0.036431
1.386	-0.037943
1.388	-0.039074
1.39	-0.039404
1.392	-0.038994
1.394	-0.038172
1.396	-0.037388
1.398	-0.03712
1.4	-0.037535
1.402	-0.038344
1.404	-0.038924
1.406	-0.03869
1.408	-0.037571
1.41	-0.035997
1.412	-0.034471
1.414	-0.033339
1.416	-0.032752
1.418	-0.032411
1.42	-0.031923
1.422	-0.031326
1.424	-0.030741
1.426	-0.030297
1.428	-0.030326
1.43	-0.031029
1.432	-0.0322
1.434	-0.033546
1.436	-0.034799
1.438	-0.035744
1.44	-0.03639
1.442	-0.036871
1.444	-0.037412
1.446	-0.038313
1.448	-0.039834
1.45	-0.042085
1.452	-0.044845
1.454	-0.047425
1.456	-0.049072
1.458	-0.049696
1.46	-0.049745
1.462	-0.049594
1.464	-0.049516
1.466	-0.049733
1.468	-0.050267
1.47	-0.05075
1.472	-0.050476
1.474	-0.049273
1.476	-0.047817
1.478	-0.04683
1.48	-0.046593
1.482	-0.04705
1.484	-0.047965
1.486	-0.048847
1.488	-0.049007
1.49	-0.048022
1.492	-0.046253
1.494	-0.04471
1.496	-0.044085
1.498	-0.044385
1.5	-0.045656
1.502	-0.047768
1.504	-0.049863
1.506	-0.051224
1.508	-0.051817
1.51	-0.051893
1.512	-0.051785
1.514	-0.051675
1.516	-0.051416
1.518	-0.050983
1.52	-0.050504
1.522	-0.049644
1.524	-0.048024
1.526	-0.045942
1.528	-0.043972
1.53	-0.042483
1.532	-0.041704
1.534	-0.041747
1.536	-0.042448
1.538	-0.043104
1.54	-0.0428
1.542	-0.041522
1.544	-0.040073
1.546	-0.039014
1.548	-0.038614
1.55	-0.038867
1.552	-0.039345
1.554	-0.039407
1.556	-0.038456
1.558	-0.036592
1.56	-0.034706
1.562	-0.033457
1.564	-0.032835
1.566	-0.032554
1.568	-0.032316
1.57	-0.031854
1.572	-0.030722
1.574	-0.028486
1.576	-0.025499
1.578	-0.022674
1.58	-0.020537
1.582	-0.019324
1.584	-0.019171
1.586	-0.019729
1.588	-0.020173
1.59	-0.019781
1.592	-0.018609
1.594	-0.017215
1.596	-0.015966
1.598	-0.015096
1.6	-0.014724
1.602	-0.014558
1.604	-0.013827
1.606	-0.011807
1.608	-0.008618
1.61	-0.005144
1.612	-0.001956
1.614	0.000991
1.616	0.003563
1.618	0.0056
1.62	0.007542
1.622	0.01004
1.624	0.013251
1.626	0.016612
1.628	0.019463
1.63	0.021575
1.632	0.022868
1.634	0.023324
1.636	0.023181
1.638	0.022908
1.64	0.02306
1.642	0.023753
1.644	0.024304
1.646	0.023963
1.648	0.022557
1.65	0.020289
1.652	0.017578
1.654	0.015153
1.656	0.013768
1.658	0.013539
1.66	0.013833
1.662	0.013891
1.664	0.013316
1.666	0.012124
1.668	0.010633
1.67	0.009371
1.672	0.009022
1.674	0.009793
1.676	0.010918
1.678	0.011568
1.68	0.011701
1.682	0.011472
1.684	0.010865
1.686	0.0102
1.688	0.010202
1.69	0.011561
1.692	0.014389
1.694	0.01822
1.696	0.022361
1.698	0.026161
1.7	0.029456
1.702	0.032709
1.704	0.036882
1.706	0.043021
1.708	0.051457
1.71	0.061584
1.712	0.072497
1.714	0.083597
1.716	0.094719
1.718	0.10617
1.72	0.118395
1.722	0.131262
1.724	0.143891
1.726	0.155047
1.728	0.163505
1.73	0.168305
1.732	0.168753
1.734	0.1645
1.736	0.15607
1.738	0.14462
1.74	0.130968
1.742	0.115294
1.744	0.097199
1.746	0.076181
1.748	0.052898
1.75	0.029219
1.752	0.00704
1.754	-0.011996
1.756	-0.026663
1.758	-0.036888
1.76	-0.043672
1.762	-0.048101
1.764	-0.050714
1.766	-0.051663
1.768	-0.050986
1.77	-0.048604
1.772	-0.044193
1.774	-0.037657
1.776	-0.029753
1.778	-0.021769
1.78	-0.014652
1.782	-0.008561
1.784	-0.003017
1.786	0.002643
1.788	0.008919
1.79	0.016082
1.792	0.023919
1.794	0.031513
1.796	0.037834
1.798	0.042317
1.8	0.045015
1.802	0.046653
1.804	0.04816
1.806	0.050198
1.808	0.053053
1.81	0.056557
1.812	0.06006
1.814	0.062895
1.816	0.06486
1.818	0.066075
1.82	0.066976
1.822	0.06836
1.824	0.070798
1.826	0.074024
1.828	0.076986
1.83	0.078782
1.832	0.0793
1.834	0.078829
1.836	0.077943
1.838	0.077497
1.84	0.077902
1.842	0.078683
1.844	0.078976
1.846	0.078274
1.848	0.076632
1.85	0.074375
1.852	0.072016
1.854	0.070261
1.856	0.069607
1.858	0.069785
1.86	0.069829
1.862	0.068845
1.864	0.066578
1.866	0.063288
1.868	0.059473
1.87	0.055777
1.872	0.052894
1.874	0.051218
1.876	0.050511
1.878	0.050035
1.88	0.049131
1.882	0.047808
1.884	0.046492
1.886	0.045612
1.888	0.045712
1.89	0.047207
1.892	0.049844
1.894	0.05278
1.896	0.055388
1.898	0.057698
1.9	0.060064
1.902	0.062855
1.904	0.06648
1.906	0.071276
1.908	0.077107
1.91	0.083141
1.912	0.088348
1.914	0.092386
1.916	0.095477
1.918	0.097874
1.92	0.100296
1.922	0.10382
1.924	0.108848
1.926	0.11476
1.928	0.120423
1.93	0.125049
1.932	0.12864
1.934	0.131631
1.936	0.1345
1.938	0.137754
1.94	0.141907
1.942	0.146974
1.944	0.152006
1.946	0.156007
1.948	0.158989
1.95	0.161394
1.952	0.163529
1.954	0.165914
1.956	0.169133
1.958	0.173203
1.96	0.177441
1.962	0.181002
1.964	0.183365
1.966	0.18449
1.968	0.184722
1.97	0.184622
1.972	0.184853
1.974	0.185767
1.976	0.186838
1.978	0.18679
1.98	0.18471
1.982	0.180694
1.984	0.17516
1.986	0.168501
1.988	0.161385
1.99	0.154502
1.992	0.147996
1.994	0.141297
1.996	0.13372
1.998	0.125199
2	0.116115
2.002	0.106816
2.004	0.097851
2.006	0.089801
2.008	0.082618
2.01	0.075599
2.012	0.067911
2.014	0.059135
2.016	0.049425
2.018	0.039426
2.02	0.030016
2.022	0.021918
2.024	0.015539
2.026	0.010645
2.028	0.006106
2.03	0.00074
2.032	-0.005827
2.034	-0.013282
2.036	-0.020711
2.038	-0.026906
2.04	-0.031246
2.042	-0.034033
2.044	-0.036157
2.046	-0.038438
2.048	-0.041004
2.05	-0.04348
2.052	-0.045626
2.054	-0.047199
2.056	-0.047632
2.058	-0.046757
2.06	-0.045406
2.062	-0.044787
2.064	-0.045416
2.066	-0.046919
2.068	-0.048712
2.07	-0.050259
2.072	-0.050932
2.074	-0.050387
2.076	-0.049109
2.078	-0.048061
2.08	-0.047836
2.082	-0.048484
2.084	-0.04982
2.086	-0.051447
2.088	-0.052803
2.09	-0.053532
2.092	-0.053564
2.094	-0.053092
2.096	-0.052871
2.098	-0.053648
2.1	-0.05527
2.102	-0.057037
2.104	-0.058121
2.106	-0.057809
2.108	-0.056176
2.11	-0.054246
2.112	-0.053175
2.114	-0.053316
2.116	-0.05431
2.118	-0.05556
2.12	-0.056342
2.122	-0.055997
2.124	-0.054312
2.126	-0.051731
2.128	-0.0491
2.13	-0.047189
2.132	-0.046249
2.134	-0.045876
2.136	-0.04541
2.138	-0.04441
2.14	-0.042767
2.142	-0.0407
2.144	-0.038778
2.146	-0.037542
2.148	-0.037031
2.15	-0.036851
2.152	-0.036503
2.154	-0.035616
2.156	-0.034081
2.158	-0.032089
2.16	-0.030006
2.162	-0.028425
2.164	-0.027986
2.166	-0.028741
2.168	-0.030208
2.17	-0.031778
2.172	-0.032782
2.174	-0.032871
2.176	-0.032369
2.178	-0.03205
2.18	-0.032678
2.182	-0.03432
2.184	-0.036244
2.186	-0.037799
2.188	-0.038672
2.19	-0.038627
2.192	-0.037727
2.194	-0.036482
2.196	-0.035603
2.198	-0.035595
2.2	-0.036524
2.202	-0.038129
2.204	-0.039746
2.206	-0.040429
2.208	-0.039789
2.21	-0.038569
2.212	-0.038082
2.214	-0.038958
2.216	-0.040826
2.218	-0.043128
2.22	-0.045379
2.222	-0.046897
2.224	-0.047205
2.226	-0.046621
2.228	-0.046095
2.23	-0.046477
2.232	-0.047905
2.234	-0.049908
2.236	-0.051861
2.238	-0.053117
2.24	-0.053255
2.242	-0.05258
2.244	-0.051938
2.246	-0.052011
2.248	-0.053038
2.25	-0.054869
2.252	-0.057071
2.254	-0.058909
2.256	-0.059534
2.258	-0.058668
2.26	-0.056886
2.262	-0.055165
2.264	-0.054203
2.266	-0.053961
2.268	-0.053861
2.27	-0.053349
2.272	-0.052017
2.274	-0.04976
2.276	-0.04701
2.278	-0.044598
2.28	-0.043535
2.282	-0.044284
2.284	-0.046269
2.286	-0.048532
2.288	-0.050089
2.29	-0.050195
2.292	-0.048953
2.294	-0.047328
2.296	-0.046515
2.298	-0.047105
2.3	-0.048781
2.302	-0.05068
2.304	-0.051923
2.306	-0.051997
2.308	-0.050863
2.31	-0.04884
2.312	-0.046495
2.314	-0.044645
2.316	-0.043937
2.318	-0.044397
2.32	-0.045288
2.322	-0.04542
2.324	-0.044177
2.326	-0.042058
2.328	-0.040102
2.33	-0.039022
2.332	-0.038935
2.334	-0.03953
2.336	-0.040251
2.338	-0.040502
2.34	-0.039927
2.342	-0.038673
2.344	-0.037338
2.346	-0.036643
2.348	-0.036974
2.35	-0.038185
2.352	-0.039813
2.354	-0.041273
2.356	-0.042039
2.358	-0.041906
2.36	-0.041055
2.362	-0.040082
2.364	-0.039796
2.366	-0.040625
2.368	-0.042187
2.37	-0.043661
2.372	-0.044415
2.374	-0.044134
2.376	-0.042909
2.378	-0.041448
2.38	-0.04065
2.382	-0.040725
2.384	-0.041237
2.386	-0.041649
2.388	-0.041414
2.39	-0.040106
2.392	-0.037817
2.394	-0.035196
2.396	-0.03307
2.398	-0.032004
2.4	-0.03193
2.402	-0.0321
2.404	-0.031612
2.406	-0.02996
2.408	-0.026968
2.41	-0.022904
2.412	-0.018768
2.414	-0.015517
2.416	-0.013281
2.418	-0.011708
2.42	-0.010234
2.422	-0.008111
2.424	-0.004897
2.426	-0.000906
2.428	0.003036
2.43	0.006057
2.432	0.007713
2.434	0.008438
2.436	0.008979
2.438	0.00971
2.44	0.011102
2.442	0.013579
2.444	0.016665
2.446	0.019174
2.448	0.020134
2.45	0.019323
2.452	0.017129
2.454	0.014275
2.456	0.011592
2.458	0.009421
2.46	0.007441
2.462	0.005094
2.464	0.001765
2.466	-0.002844
2.468	-0.008299
2.47	-0.013619
2.472	-0.017868
2.474	-0.020668
2.476	-0.022361
2.478	-0.023893
2.48	-0.026144
2.482	-0.029366
2.484	-0.033185
2.486	-0.036699
2.488	-0.039101
2.49	-0.040206
2.492	-0.040302
2.494	-0.040024
2.496	-0.040067
2.498	-0.040984
2.5	-0.043053
2.502	-0.045771
2.504	-0.047924
2.506	-0.048345
2.508	-0.046688
2.51	-0.043658
2.512	-0.040349
2.514	-0.03762
2.516	-0.035739
2.518	-0.034021
2.52	-0.031006
2.522	-0.025281
2.524	-0.016325
2.526	-0.004668
2.528	0.008793
2.53	0.02324
2.532	0.037815
2.534	0.051884
2.536	0.065092
2.538	0.077053
2.54	0.087426
2.542	0.095554
2.544	0.100051
2.546	0.099407
2.548	0.092867
2.55	0.080862
2.552	0.064823
2.554	0.046368
2.556	0.026766
2.558	0.006917
2.56	-0.01292
2.562	-0.032767
2.564	-0.052171
2.566	-0.070512
2.568	-0.087107
2.57	-0.100913
2.572	-0.110915
2.574	-0.116788
2.576	-0.119324
2.578	-0.119878
2.58	-0.119347
2.582	-0.118064
2.584	-0.11608
2.586	-0.113038
2.588	-0.108266
2.59	-0.101405
2.592	-0.092915
2.594	-0.083877
2.596	-0.075174
2.598	-0.067244
2.6	-0.060543
2.602	-0.055057
2.604	-0.049932
2.606	-0.044442
2.608	-0.038598
2.61	-0.033005
2.612	-0.028523
2.614	-0.025737
2.616	-0.024667
2.618	-0.024739
2.62	-0.024848
2.622	-0.023841
2.624	-0.02108
2.626	-0.016731
2.628	-0.011993
2.63	-0.008539
2.632	-0.00728
2.634	-0.008109
2.636	-0.010222
2.638	-0.012239
2.64	-0.013053
2.642	-0.01259
2.644	-0.011581
2.646	-0.010889
2.648	-0.010969
2.65	-0.011787
2.652	-0.012948
2.654	-0.013747
2.656	-0.013448
2.658	-0.011891
2.66	-0.009564
2.662	-0.007285
2.664	-0.005886
2.666	-0.005669
2.668	-0.006468
2.67	-0.007748
2.672	-0.008391
2.674	-0.007514
2.676	-0.005435
2.678	-0.003257
2.68	-0.0019
2.682	-0.001732
2.684	-0.002588
2.686	-0.003781
2.688	-0.004255
2.69	-0.003205
2.692	-0.000778
2.694	0.002234
2.696	0.005237
2.698	0.007932
2.7	0.010083
2.702	0.011689
2.704	0.013257
2.706	0.01555
2.708	0.018783
2.71	0.022318
2.712	0.025371
2.714	0.027789
2.716	0.029787
2.718	0.031515
2.72	0.033366
2.722	0.03615
2.724	0.040705
2.726	0.046992
2.728	0.053593
2.73	0.058919
2.732	0.062571
2.734	0.064907
2.736	0.066653
2.738	0.069083
2.74	0.073086
2.742	0.078379
2.744	0.083999
2.746	0.089167
2.748	0.093527
2.75	0.096899
2.752	0.099509
2.754	0.102233
2.756	0.106062
2.758	0.111303
2.76	0.117203
2.762	0.122616
2.764	0.127037
2.766	0.130582
2.768	0.133537
2.77	0.136556
2.772	0.140428
2.774	0.145444
2.776	0.151201
2.778	0.15671
2.78	0.160917
2.782	0.163179
2.784	0.16334
2.786	0.162024
2.788	0.160646
2.79	0.160168
2.792	0.16032
2.794	0.160193
2.796	0.158949
2.798	0.156168
2.8	0.151724
2.802	0.145756
2.804	0.139053
2.806	0.132766
2.808	0.127488
2.81	0.122887
2.812	0.117972
2.814	0.111724
2.816	0.103641
2.818	0.093801
2.82	0.082803
2.822	0.071683
2.824	0.061454
2.826	0.052472
2.828	0.044177
2.83	0.035459
2.832	0.025493
2.834	0.014407
2.836	0.003118
2.838	-0.007189
2.84	-0.015756
2.842	-0.022862
2.844	-0.029466
2.846	-0.036259
2.848	-0.043121
2.85	-0.049658
2.852	-0.055736
2.854	-0.06105
2.856	-0.065049
2.858	-0.067464
2.86	-0.068698
2.862	-0.069571
2.864	-0.070689
2.866	-0.07239
2.868	-0.074845
2.87	-0.077704
2.872	-0.080033
2.874	-0.081151
2.876	-0.081325
2.878	-0.081351
2.88	-0.081898
2.882	-0.083203
2.884	-0.085028
2.886	-0.086964
2.888	-0.088213
2.89	-0.087733
2.892	-0.085519
2.894	-0.082686
2.896	-0.080233
2.898	-0.078634
2.9	-0.078105
2.902	-0.078505
2.904	-0.079171
2.906	-0.079182
2.908	-0.078078
2.91	-0.076244
2.912	-0.074562
2.914	-0.073681
2.916	-0.073579
2.918	-0.074015
2.92	-0.074725
2.922	-0.074904
2.924	-0.073829
2.926	-0.071882
2.928	-0.070006
2.93	-0.068782
2.932	-0.068371
2.934	-0.068737
2.936	-0.069484
2.938	-0.069669
2.94	-0.068515
2.942	-0.066218
2.944	-0.063518
2.946	-0.061106
2.948	-0.059505
2.95	-0.059057
2.952	-0.059956
2.954	-0.061566
2.956	-0.062421
2.958	-0.061828
2.96	-0.060343
2.962	-0.058789
2.964	-0.057679
2.966	-0.057242
2.968	-0.057471
2.97	-0.057967
2.972	-0.057902
2.974	-0.056652
2.976	-0.054563
2.978	-0.052516
2.98	-0.051016
2.982	-0.050249
2.984	-0.050323
2.986	-0.050984
2.988	-0.051514
2.99	-0.051165
2.992	-0.049791
2.994	-0.047974
2.996	-0.046484
2.998	-0.045728
3	-0.045783
3.002	-0.046548
3.004	-0.047456
3.006	-0.047639
3.008	-0.046734
3.01	-0.045266
3.012	-0.044168
3.014	-0.044095
3.016	-0.045169
3.018	-0.047115
3.02	-0.049368
3.022	-0.051114
3.024	-0.05174
3.026	-0.051421
3.028	-0.050817
3.03	-0.050494
3.032	-0.050873
3.034	-0.052158
3.036	-0.054233
3.038	-0.056428
3.04	-0.057733
3.042	-0.05791
3.044	-0.057674
3.046	-0.057695
3.048	-0.058156
3.05	-0.058871
3.052	-0.059832
3.054	-0.061291
3.056	-0.062765
3.058	-0.063398
3.06	-0.063395
3.062	-0.06376
3.064	-0.065085
3.066	-0.067328
3.068	-0.070288
3.07	-0.073583
3.072	-0.076224
3.074	-0.077253
3.076	-0.076811
3.078	-0.075809
3.08	-0.075108
3.082	-0.075188
3.084	-0.076038
3.086	-0.077457
3.088	-0.079064
3.09	-0.079935
3.092	-0.079399
3.094	-0.078002
3.096	-0.076702
3.098	-0.075943
3.1	-0.075867
3.102	-0.076426
3.104	-0.077042
3.106	-0.076717
3.108	-0.075022
3.11	-0.07264
3.112	-0.070544
3.114	-0.069101
3.116	-0.06821
3.118	-0.06781
3.12	-0.06775
3.122	-0.067376
3.124	-0.065933
3.126	-0.063511
3.128	-0.060936
3.13	-0.058879
3.132	-0.057571
3.134	-0.057039
3.136	-0.05717
3.138	-0.057477
3.14	-0.057183
3.142	-0.055941
3.144	-0.054165
3.146	-0.052583
3.148	-0.051628
3.15	-0.051226
3.152	-0.051069
3.154	-0.050818
3.156	-0.049997
3.158	-0.048263
3.16	-0.045918
3.162	-0.043599
3.164	-0.041731
3.166	-0.040616
3.168	-0.040482
3.17	-0.041198
3.172	-0.042053
3.174	-0.04212
3.176	-0.041259
3.178	-0.040283
3.18	-0.039939
3.182	-0.040286
3.184	-0.040857
3.186	-0.041186
3.188	-0.040958
3.19	-0.039584
3.192	-0.036816
3.194	-0.033777
3.196	-0.031817
3.198	-0.031
3.2	-0.030886
3.202	-0.031369
3.204	-0.032115
3.206	-0.032208
3.208	-0.030891
3.21	-0.028498
3.212	-0.025935
3.214	-0.023702
3.216	-0.021956
3.218	-0.020817
3.22	-0.020103
3.222	-0.019248
3.224	-0.017857
3.226	-0.016097
3.228	-0.014576
3.23	-0.014072
3.232	-0.015074
3.234	-0.017325
3.236	-0.020095
3.238	-0.022725
3.24	-0.024658
3.242	-0.025697
3.244	-0.026376
3.246	-0.027485
3.248	-0.029443
3.25	-0.03219
3.252	-0.035365
3.254	-0.038465
3.256	-0.040763
3.258	-0.04175
3.26	-0.041718
3.262	-0.041453
3.264	-0.04162
3.266	-0.042541
3.268	-0.044253
3.27	-0.046299
3.272	-0.047777
3.274	-0.048324
3.276	-0.048432
3.278	-0.048797
3.28	-0.049977
3.282	-0.052225
3.284	-0.05537
3.286	-0.058756
3.288	-0.061381
3.29	-0.06225
3.292	-0.061039
3.294	-0.058588
3.296	-0.056068
3.298	-0.053926
3.3	-0.051778
3.302	-0.048672
3.304	-0.043597
3.306	-0.03593
3.308	-0.025488
3.31	-0.012684
3.312	0.001512
3.314	0.016144
3.316	0.030693
3.318	0.04498
3.32	0.058716
3.322	0.071212
3.324	0.081644
3.326	0.08907
3.328	0.092385
3.33	0.090904
3.332	0.084529
3.334	0.073581
3.336	0.058709
3.338	0.040843
3.34	0.021264
3.342	0.001219
3.344	-0.018661
3.346	-0.038073
3.348	-0.056549
3.35	-0.073523
3.352	-0.088309
3.354	-0.100223
3.356	-0.109067
3.358	-0.115012
3.36	-0.118343
3.362	-0.119669
3.364	-0.119756
3.366	-0.119042
3.368	-0.117338
3.37	-0.114308
3.372	-0.110063
3.374	-0.104629
3.376	-0.097938
3.378	-0.090604
3.38	-0.08355
3.382	-0.077129
3.384	-0.07129
3.386	-0.065952
3.388	-0.060774
3.39	-0.055187
3.392	-0.048886
3.394	-0.042379
3.396	-0.036692
3.398	-0.032401
3.4	-0.029499
3.402	-0.027834
3.404	-0.026994
3.406	-0.026014
3.408	-0.024001
3.41	-0.021143
3.412	-0.018398
3.414	-0.016448
3.416	-0.015414
3.418	-0.015022
3.42	-0.014832
3.422	-0.014429
3.424	-0.013481
3.426	-0.01191
3.428	-0.010078
3.43	-0.008604
3.432	-0.007889
3.434	-0.007948
3.436	-0.008542
3.438	-0.009026
3.44	-0.008356
3.442	-0.005923
3.444	-0.00227
3.446	0.001081
3.448	0.002915
3.45	0.003282
3.452	0.002957
3.454	0.002638
3.456	0.002798
3.458	0.003896
3.46	0.005928
3.462	0.00805
3.464	0.009435
3.466	0.010048
3.468	0.010434
3.47	0.011069
3.472	0.012179
3.474	0.014146
3.476	0.017284
3.478	0.021178
3.48	0.025036
3.482	0.028427
3.484	0.031249
3.486	0.033784
3.488	0.036615
3.49	0.040032
3.492	0.04387
3.494	0.047844
3.496	0.051659
3.498	0.054997
3.5	0.057755
3.502	0.060276
3.504	0.063101
3.506	0.066516
3.508	0.070501
3.51	0.074999
3.512	0.079776
3.514	0.084462
3.516	0.08879
3.518	0.092612
3.52	0.096317
3.522	0.100777
3.524	0.106385
3.526	0.112581
3.528	0.118462
3.53	0.123511
3.532	0.127625
3.534	0.131034
3.536	0.134404
3.538	0.138511
3.54	0.143694
3.542	0.149766
3.544	0.156174
3.546	0.162261
3.548	0.167563
3.55	0.171898
3.552	0.175494
3.554	0.178899
3.556	0.182414
3.558	0.185865
3.56	0.188909
3.562	0.191103
3.564	0.192049
3.566	0.191834
3.568	0.190847
3.57	0.189446
3.572	0.1879
3.574	0.186222
3.576	0.184366
3.578	0.182213
3.58	0.179203
3.582	0.174639
3.584	0.168436
3.586	0.161322
3.588	0.154227
3.59	0.147515
3.592	0.140946
3.594	0.134
3.596	0.125917
3.598	0.116167
3.6	0.105066
3.602	0.0936
3.604	0.08272
3.606	0.073117
3.608	0.065326
3.61	0.058971
3.612	0.052785
3.614	0.045832
3.616	0.038022
3.618	0.029798
3.62	0.021735
3.622	0.014407
3.624	0.008174
3.626	0.00295
3.628	-0.001735
3.63	-0.006476
3.632	-0.01137
3.634	-0.016109
3.636	-0.020506
3.638	-0.024184
3.64	-0.026532
3.642	-0.02738
3.644	-0.027354
3.646	-0.027567
3.648	-0.028729
3.65	-0.030749
3.652	-0.033182
3.654	-0.035485
3.656	-0.037252
3.658	-0.038551
3.66	-0.039504
3.662	-0.040099
3.664	-0.040687
3.666	-0.041666
3.668	-0.042968
3.67	-0.044266
3.672	-0.045093
3.674	-0.0452
3.676	-0.044901
3.678	-0.044573
3.68	-0.044374
3.682	-0.044548
3.684	-0.045338
3.686	-0.046461
3.688	-0.047151
3.69	-0.046832
3.692	-0.04553
3.694	-0.04367
3.696	-0.04181
3.698	-0.040605
3.7	-0.040451
3.702	-0.041144
3.704	-0.041976
3.706	-0.042197
3.708	-0.041627
3.71	-0.040609
3.712	-0.039661
3.714	-0.039376
3.716	-0.039953
3.718	-0.040976
3.72	-0.041807
3.722	-0.042112
3.724	-0.042017
3.726	-0.041835
3.728	-0.042027
3.73	-0.042984
3.732	-0.044653
3.734	-0.04671
3.736	-0.04883
3.738	-0.050484
3.74	-0.051052
3.742	-0.050439
3.744	-0.049005
3.746	-0.047291
3.748	-0.046032
3.75	-0.045546
3.752	-0.045515
3.754	-0.045468
3.756	-0.044939
3.758	-0.043738
3.76	-0.042197
3.762	-0.040796
3.764	-0.039858
3.766	-0.039489
3.768	-0.039584
3.77	-0.039786
3.772	-0.03951
3.774	-0.038563
3.776	-0.037417
3.778	-0.036663
3.78	-0.036534
3.782	-0.037025
3.784	-0.037977
3.786	-0.038866
3.788	-0.038923
3.79	-0.037575
3.792	-0.035036
3.794	-0.032356
3.796	-0.030792
3.798	-0.030951
3.8	-0.032346
3.802	-0.034089
3.804	-0.035488
3.806	-0.035964
3.808	-0.03554
3.81	-0.035103
3.812	-0.035282
3.814	-0.036011
3.816	-0.037282
3.818	-0.038904
3.82	-0.040097
3.822	-0.040186
3.824	-0.039148
3.826	-0.03749
3.828	-0.035924
3.83	-0.03508
3.832	-0.035217
3.834	-0.036227
3.836	-0.037653
3.838	-0.03856
3.84	-0.038239
3.842	-0.036846
3.844	-0.035032
3.846	-0.033297
3.848	-0.031897
3.85	-0.03106
3.852	-0.030751
3.854	-0.030464
3.856	-0.029525
3.858	-0.027757
3.86	-0.02589
3.862	-0.024891
3.864	-0.025022
3.866	-0.026061
3.868	-0.02766
3.87	-0.02906
3.872	-0.029478
3.874	-0.028744
3.876	-0.027452
3.878	-0.026499
3.88	-0.026193
3.882	-0.026325
3.884	-0.026865
3.886	-0.027869
3.888	-0.02893
3.89	-0.029458
3.892	-0.029574
3.894	-0.030031
3.896	-0.031192
3.898	-0.032836
3.9	-0.034832
3.902	-0.037097
3.904	-0.039091
3.906	-0.040088
3.908	-0.039968
3.91	-0.039419
3.912	-0.039241
3.914	-0.039626
3.916	-0.040427
3.918	-0.041601
3.92	-0.042903
3.922	-0.043634
3.924	-0.0433
3.926	-0.042233
3.928	-0.041184
3.93	-0.04058
3.932	-0.040494
3.934	-0.040999
3.936	-0.04191
3.938	-0.042392
3.94	-0.041462
3.942	-0.039003
3.944	-0.036098
3.946	-0.033952
3.948	-0.03287
3.95	-0.032756
3.952	-0.033538
3.954	-0.034644
3.956	-0.035016
3.958	-0.034055
3.96	-0.032013
3.962	-0.029584
3.964	-0.027421
3.966	-0.02593
3.968	-0.025245
3.97	-0.024899
3.972	-0.024042
3.974	-0.022411
3.976	-0.020366
3.978	-0.018209
3.98	-0.016037
3.982	-0.014163
3.984	-0.013186
3.986	-0.013187
3.988	-0.013447
3.99	-0.013206
3.992	-0.012275
3.994	-0.011132
3.996	-0.010489
3.998	-0.010732
4	-0.01183
