-0.000	-0.000	-0.000	-0.000	-0.000	-0.000	-0.000	-0.000	-0.000	-0.000	-0.000	-0.000	-0.001	-0.001	-0.002	-0.003	-0.004	-0.005	-0.007	-0.009	-0.011	-0.014	-0.017	-0.021	-0.025	-0.029	-0.034	-0.039	-0.045	-0.051	-0.057	-0.063	-0.069	-0.075	-0.081	-0.086	-0.091	-0.096	-0.101	-0.104	-0.107	-0.110	-0.111	-0.112	-0.113	-0.112	-0.111	-0.108	-0.106	-0.102	-0.098	-0.094	-0.089	-0.084	-0.078	-0.072	-0.066	-0.061	-0.055	-0.049	-0.044	-0.039	-0.034	-0.030	-0.026	-0.023	-0.020	-0.017	-0.015	-0.014	-0.013	-0.012	-0.012	-0.012	-0.012	-0.012	-0.013	-0.014	-0.015	-0.016	-0.017	-0.017	-0.018	-0.018	-0.019	-0.019	-0.019	-0.018	-0.018	-0.017	-0.015	-0.014	-0.012	-0.010	-0.008	-0.006	-0.004	-0.001	0.002	0.005	0.008	0.011	0.014	0.017	0.020	0.023	0.026	0.029	0.033	0.036	0.039	0.042	0.046	0.049	0.052	0.056	0.059	0.063	0.066	0.070	0.074	0.077	0.081	0.085	0.089	0.092	0.096	0.100	0.103	0.107	0.110	0.113	0.116	0.119	0.121	0.123	0.125	0.126	0.127	0.128	0.128	0.127	0.126	0.124	0.122	0.119	0.116	0.112	0.108	0.103	0.097	0.091	0.085	0.078	0.071	0.063	0.056	0.048	0.040	0.032	0.023	0.015	0.007	-0.001	-0.009	-0.016	-0.024	-0.031	-0.037	-0.044	-0.050	-0.055	-0.060	-0.065	-0.069	-0.073	-0.077	-0.080	-0.082	-0.084	-0.086	-0.087	-0.088	-0.089	-0.089	-0.089	-0.089	-0.089	-0.089	-0.088	-0.088	-0.087	-0.086	-0.086	-0.085	-0.084	-0.084	-0.083	-0.083	-0.082	-0.082	-0.082	-0.082	-0.081	-0.081	-0.081	-0.081	-0.081	-0.082	-0.082	-0.082	-0.082	-0.082	-0.082	-0.082	-0.082	-0.082	-0.082	-0.082	-0.082	-0.082	-0.082	-0.081	-0.081	-0.081	-0.081	-0.080	-0.080	-0.080	-0.079	-0.079	-0.078	-0.078	-0.077	-0.077	-0.076	-0.076	-0.075	-0.075	-0.074	-0.073	-0.073	-0.072	-0.072	-0.071	-0.071	-0.070	-0.070	-0.070	-0.069	-0.069	-0.069	-0.069	-0.069	-0.069	-0.069	-0.069	-0.069	-0.069	-0.069	-0.070	-0.070	-0.070	-0.070	-0.071	-0.071	-0.072	-0.072	-0.072	-0.073	-0.073	-0.074	-0.074	-0.074	-0.075	-0.075	-0.075	-0.076	-0.076	-0.076	-0.076	-0.076	-0.076	-0.076	-0.076	-0.076	-0.076	-0.076	-0.075	-0.075	-0.075	-0.074	-0.074	-0.074	-0.073	-0.073	-0.072	-0.072	-0.071	-0.071	-0.070	-0.070	-0.069	-0.068	-0.068	-0.067	-0.067	-0.066	-0.065	-0.065	-0.064	-0.064	-0.063	-0.063	-0.062	-0.062	-0.062	-0.061	-0.061	-0.061	-0.061	-0.061	-0.061	-0.061	-0.061	-0.061	-0.061	-0.061	-0.062	-0.062	-0.062	-0.062	-0.063	-0.063	-0.063	-0.063	-0.063	-0.064	-0.064	-0.064	-0.064	-0.064	-0.064	-0.064	-0.064	-0.063	-0.063	-0.063	-0.063	-0.062	-0.062	-0.061	-0.061	-0.060	-0.060	-0.059	-0.059	-0.058	-0.058	-0.057	-0.057	-0.056	-0.056	-0.056	-0.056	-0.055	-0.055	-0.055	-0.055	-0.056	-0.056	-0.056	-0.056	-0.057	-0.057	-0.058	-0.058	-0.059	-0.059	-0.060	-0.061	-0.061	-0.061	-0.062	-0.062	-0.062	-0.063	-0.063	-0.063	-0.062	-0.062	-0.062	-0.061	-0.061	-0.060	-0.059	-0.058	-0.057	-0.056	-0.054	-0.053	-0.051	-0.049	-0.048	-0.046	-0.044	-0.042	-0.040	-0.038	-0.036	-0.034	-0.032	-0.030	-0.028	-0.026	-0.024	-0.023	-0.021	-0.020	-0.019	-0.019	-0.018	-0.018	-0.018	-0.018	-0.018	-0.019	-0.020	-0.021	-0.022	-0.024	-0.025	-0.027	-0.029	-0.031	-0.033	-0.035	-0.037	-0.039	-0.041	-0.042	-0.044	-0.045	-0.046	-0.046	-0.046	-0.046	-0.045	-0.044	-0.042	-0.040	-0.037	-0.034	-0.030	-0.025	-0.020	-0.015	-0.009	-0.003	0.003	0.010	0.016	0.022	0.027	0.032	0.037	0.040	0.043	0.045	0.046	0.046	0.044	0.042	0.038	0.034	0.028	0.022	0.015	0.007	-0.002	-0.011	-0.020	-0.029	-0.038	-0.047	-0.056	-0.064	-0.071	-0.077	-0.083	-0.088	-0.091	-0.094	-0.095	-0.096	-0.096	-0.094	-0.092	-0.088	-0.084	-0.080	-0.074	-0.068	-0.062	-0.056	-0.050	-0.043	-0.037	-0.031	-0.025	-0.019	-0.014	-0.009	-0.005	-0.002	0.001	0.004	0.006	0.007	0.008	0.009	0.009	0.009	0.008	0.007	0.006	0.005	0.003	0.002	0.001	-0.001	-0.002	-0.003	-0.004	-0.005	-0.005	-0.006	-0.006	-0.005	-0.005	-0.004	-0.003	-0.002	-0.000	0.002	0.004	0.006	0.008	0.011	0.014	0.017	0.020	0.023	0.026	0.029	0.033	0.036	0.040	0.044	0.048	0.051	0.055	0.059	0.063	0.067	0.071	0.075	0.079	0.083	0.087	0.091	0.095	0.099	0.103	0.107	0.111	0.114	0.118	0.121	0.125	0.128	0.131	0.133	0.135	0.137	0.139	0.140	0.141	0.141	0.141	0.140	0.139	0.137	0.135	0.133	0.129	0.126	0.121	0.116	0.111	0.106	0.099	0.093	0.086	0.079	0.072	0.064	0.056	0.048	0.041	0.033	0.025	0.017	0.009	0.002	-0.005	-0.012	-0.019	-0.025	-0.031	-0.037	-0.042	-0.047	-0.051	-0.055	-0.058	-0.061	-0.064	-0.066	-0.068	-0.069	-0.070	-0.070	-0.070	-0.070	-0.069	-0.069	-0.068	-0.066	-0.065	-0.063	-0.061	-0.059	-0.058	-0.055	-0.053	-0.051	-0.049	-0.047	-0.045	-0.044	-0.042	-0.040	-0.039	-0.037	-0.036	-0.035	-0.034	-0.033	-0.032	-0.032	-0.031	-0.031	-0.031	-0.030	-0.030	-0.030	-0.031	-0.031	-0.031	-0.031	-0.031	-0.032	-0.032	-0.032	-0.033	-0.033	-0.033	-0.033	-0.033	-0.033	-0.033	-0.033	-0.033	-0.033	-0.033	-0.032	-0.032	-0.032	-0.031	-0.031	-0.030	-0.030	-0.029	-0.029	-0.029	-0.028	-0.028	-0.028	-0.027	-0.027	-0.027	-0.027	-0.027	-0.027	-0.028	-0.028	-0.028	-0.029	-0.029	-0.030	-0.030	-0.031	-0.032	-0.032	-0.033	-0.034	-0.034	-0.035	-0.036	-0.036	-0.037	-0.037	-0.038	-0.038	-0.038	-0.038	-0.038	-0.038	-0.038	-0.038	-0.038	-0.037	-0.037	-0.037	-0.037	-0.036	-0.036	-0.036	-0.035	-0.035	-0.035	-0.035	-0.035	-0.035	-0.036	-0.036	-0.037	-0.037	-0.038	-0.038	-0.039	-0.040	-0.041	-0.042	-0.043	-0.044	-0.045	-0.045	-0.046	-0.047	-0.048	-0.048	-0.049	-0.049	-0.050	-0.050	-0.051	-0.051	-0.051	-0.051	-0.051	-0.051	-0.051	-0.051	-0.050	-0.050	-0.050	-0.050	-0.049	-0.049	-0.049	-0.048	-0.048	-0.048	-0.047	-0.047	-0.046	-0.046	-0.045	-0.045	-0.045	-0.044	-0.044	-0.043	-0.042	-0.042	-0.041	-0.041	-0.040	-0.039	-0.039	-0.038	-0.037	-0.036	-0.035	-0.035	-0.034	-0.033	-0.032	-0.031	-0.030	-0.029	-0.028	-0.027	-0.025	-0.024	-0.023	-0.022	-0.021	-0.019	-0.018	-0.017	-0.015	-0.014	-0.013	-0.011	-0.010	-0.008	-0.006	-0.005	-0.003	-0.001	0.001	0.002	0.004	0.006	0.008	0.010	0.011	0.013	0.014	0.016	0.017	0.018	0.019	0.020	0.021	0.021	0.022	0.022	0.022	0.022	0.022	0.021	0.021	0.020	0.019	0.019	0.018	0.017	0.017	0.016	0.016	0.015	0.015	0.015	0.015	0.016	0.017	0.018	0.020	0.022	0.025	0.028	0.032	0.036	0.040	0.045	0.051	0.057	0.063	0.069	0.075	0.082	0.088	0.094	0.099	0.104	0.108	0.111	0.114	0.115	0.115	0.114	0.112	0.109	0.104	0.099	0.092	0.085	0.077	0.068	0.059	0.049	0.039	0.029	0.020	0.010	0.002	-0.006	-0.013	-0.020	-0.025	-0.029	-0.032	-0.034	-0.035	-0.034	-0.032	-0.030	-0.026	-0.021	-0.016	-0.010	-0.003	0.004	0.012	0.020	0.028	0.035	0.043	0.050	0.057	0.064	0.070	0.076	0.081	0.085	0.088	0.091	0.093	0.095	0.096	0.096	0.096	0.095	0.094	0.092	0.090	0.087	0.085	0.082	0.079	0.075	0.072	0.069	0.066	0.063	0.060	0.057	0.055	0.053	0.051	0.050	0.048	0.048	0.047	0.047	0.047	0.048	0.049	0.050	0.052	0.054	0.057	0.060	0.063	0.066	0.070	0.073	0.077	0.082	0.086	0.090	0.095	0.100	0.104	0.109	0.114	0.118	0.123	0.127	0.132	0.136	0.141	0.145	0.149	0.152	0.156	0.160	0.163	0.166	0.169	0.171	0.173	0.175	0.177	0.178	0.179	0.180	0.180	0.180	0.179	0.178	0.176	0.174	0.171	0.167	0.164	0.159	0.154	0.149	0.143	0.137	0.130	0.123	0.115	0.108	0.100	0.091	0.083	0.074	0.066	0.057	0.048	0.040	0.031	0.023	0.015	0.007	0.000	-0.007	-0.013	-0.019	-0.025	-0.030	-0.035	-0.039	-0.043	-0.046	-0.049	-0.051	-0.053	-0.055	-0.056	-0.057	-0.057	-0.057	-0.057	-0.057	-0.057	-0.056	-0.056	-0.055	-0.054	-0.054	-0.053	-0.052	-0.052	-0.051	-0.051	-0.050	-0.050	-0.050	-0.050	-0.050	-0.050	-0.050	-0.050	-0.051	-0.051	-0.051	-0.051	-0.051	-0.051	-0.051	-0.051	-0.051	-0.051	-0.050	-0.050	-0.049	-0.049	-0.048	-0.047	-0.046	-0.045	-0.044	-0.043	-0.041	-0.040	-0.039	-0.038	-0.037	-0.036	-0.035	-0.034	-0.033	-0.032	-0.032	-0.031	-0.031	-0.030	-0.030	-0.030	-0.030	-0.031	-0.031	-0.031	-0.032	-0.033	-0.033	-0.034	-0.035	-0.036	-0.036	-0.037	-0.038	-0.039	-0.040	-0.041	-0.042	-0.043	-0.044	-0.044	-0.045	-0.046	-0.047	-0.048	-0.048	-0.049	-0.050	-0.050	-0.051	-0.052	-0.052	-0.053	-0.053	-0.053	-0.054	-0.054	-0.054	-0.054	-0.054	-0.054	-0.054	-0.054	-0.054	-0.054	-0.054	-0.053	-0.053	-0.052	-0.052	-0.052	-0.051	-0.051	-0.050	-0.050	-0.049	-0.049	-0.049	-0.048	-0.048	-0.047	-0.047	-0.047	-0.046	-0.046	-0.046	-0.045	-0.045	-0.045	-0.045	-0.044	-0.044	-0.044	-0.043	-0.043	-0.043	-0.042	-0.042	-0.042	-0.041	-0.041	-0.041	-0.040	-0.040	-0.040	-0.040	-0.040	-0.040	-0.040	-0.040	-0.040	-0.040	-0.040	-0.040	-0.040	-0.040	-0.040	-0.040	-0.040	-0.040	-0.040	-0.039	-0.039	-0.039	-0.038	-0.038	-0.037	-0.036	-0.035	-0.034	-0.033	-0.032	-0.030	-0.029	-0.027	-0.025	-0.023	-0.021	-0.019	-0.017	-0.014	-0.012	-0.010	-0.007	-0.005	-0.002	-0.000	0.002	0.004	0.006	0.008	0.009	0.010	0.011	0.012	0.012	0.012	0.012	0.012	0.011	0.010	0.008	0.006	0.004	0.002	-0.001	-0.003	-0.006	-0.009	-0.012	-0.016	-0.019	-0.022	-0.025	-0.028	-0.031	-0.034	-0.036	-0.038	-0.040	-0.041	-0.042	-0.042	-0.042	-0.042	-0.040	-0.038	-0.036	-0.033	-0.029	-0.025	-0.020	-0.015	-0.009	-0.004	0.002	0.008	0.014	0.020	0.025	0.029	0.033	0.036	0.038	0.039	0.039	0.038	0.036	0.033	0.028	0.023	0.016	0.009	0.001	-0.008	-0.017	-0.027	-0.036	-0.046	-0.055	-0.064	-0.072	-0.080	-0.086	-0.092	-0.097	-0.100	-0.103	-0.104	-0.105	-0.104	-0.102	-0.099	-0.095	-0.090	-0.085	-0.079	-0.072	-0.065	-0.058	-0.051	-0.044	-0.037	-0.030	-0.024	-0.017	-0.012	-0.007	-0.002	0.001	0.005	0.007	0.009	0.010	0.011	0.011	0.011	0.010	0.009	0.008	0.007	0.005	0.003	0.001	-0.001	-0.003	-0.004	-0.006	-0.007	-0.008	-0.009	-0.010	-0.010	-0.009	-0.009	-0.008	-0.007	-0.005	-0.004	-0.002	0.001	0.003	0.006	0.009	0.013	0.016	0.020	0.023	0.027	0.031	0.035	0.039	0.043	0.047	0.051	0.055	0.059	0.063	0.067	0.071	0.075	0.079	0.083	0.087	0.090	0.094	0.098	0.102	0.106	0.110	0.114	0.118	0.121	0.125	0.129	0.132	0.136	0.139	0.142	0.144	0.147	0.149	0.151	0.152	0.153	0.154	0.154	0.154	0.153	0.151	0.149	0.147	0.144	0.140	0.135	0.130	0.125	0.118	0.112	0.104	0.097	0.089	0.080	0.071	0.062	0.053	0.043	0.034	0.024	0.015	0.005	-0.004	-0.013	-0.021	-0.030	-0.037	-0.045	-0.052	-0.058	-0.064	-0.069	-0.074	-0.078	-0.082	-0.085	-0.087	-0.089	-0.091	-0.092	-0.093	-0.093	-0.093	-0.093	-0.092	-0.091	-0.090	-0.089	-0.088	-0.086	-0.085	-0.083	-0.082	-0.080	-0.079	-0.077	-0.076	-0.075	-0.074	-0.072	-0.071	-0.071	-0.070	-0.069	-0.068	-0.068	-0.067	-0.067	-0.067	-0.066	-0.066	-0.065	-0.065	-0.065	-0.064	-0.064	-0.064	-0.063	-0.063	-0.062	-0.062	-0.061	-0.061	-0.060	-0.059	-0.059	-0.058	-0.057	-0.056	-0.056	-0.055	-0.054	-0.053	-0.053	-0.052	-0.051	-0.050	-0.050	-0.049	-0.049	-0.048	-0.048	-0.047	-0.047	-0.047	-0.047	-0.046	-0.046	-0.047	-0.047	-0.047	-0.047	-0.048	-0.048	-0.049	-0.049	-0.050	-0.051	-0.051	-0.052	-0.053	-0.054	-0.055	-0.056	-0.057	-0.058	-0.059	-0.060	-0.061	-0.062	-0.063	-0.065	-0.066	-0.067	-0.068	-0.069	-0.070	-0.071	-0.072	-0.073	-0.073	-0.074	-0.075	-0.076	-0.076	-0.077	-0.077	-0.077	-0.077	-0.077	-0.077	-0.077	-0.077	-0.076	-0.076	-0.075	-0.075	-0.074	-0.073	-0.072	-0.071	-0.070	-0.069	-0.067	-0.066	-0.065	-0.064	-0.062	-0.061	-0.060	-0.058	-0.057	-0.056	-0.055	-0.053	-0.052	-0.051	-0.050	-0.049	-0.048	-0.047	-0.046	-0.045	-0.044	-0.044	-0.043	-0.042	-0.042	-0.041	-0.040	-0.040	-0.039	-0.039	-0.038	-0.038	-0.037	-0.036	-0.036	-0.035	-0.034	-0.034	-0.033	-0.032	-0.031	-0.031	-0.030	-0.029	-0.028	-0.027	-0.026	-0.025	-0.025	-0.024	-0.023	-0.023	-0.022	-0.022	-0.022	-0.022	-0.022	-0.022	-0.023	-0.023	-0.024	-0.025	-0.026	-0.027	-0.028	-0.030	-0.031	-0.033	-0.034	-0.036	-0.038	-0.040	-0.041	-0.043	-0.045	-0.046	-0.048	-0.049	-0.050	-0.051	-0.052	-0.052	-0.052	-0.051	-0.050	-0.049	-0.047	-0.044	-0.041	-0.037	-0.033	-0.028	-0.023	-0.018	-0.012	-0.006	-0.000	0.005	0.011	0.016	0.021	0.025	0.028	0.030	0.031	0.032	0.031	0.029	0.026	0.022	0.017	0.011	0.004	-0.004	-0.012	-0.021	-0.030	-0.039	-0.048	-0.057	-0.066	-0.074	-0.082	-0.088	-0.094	-0.099	-0.103	-0.106	-0.108	-0.108	-0.108	-0.106	-0.103	-0.100	-0.096	-0.091	-0.085	-0.079	-0.072	-0.065	-0.058	-0.051	-0.043	-0.037	-0.030	-0.023	-0.017	-0.012	-0.007	-0.003	0.001	0.005	0.007	0.009	0.011	0.012	0.013	0.013	0.013	0.013	0.012	0.011	0.010	0.009	0.008	0.007	0.006	0.006	0.005	0.005	0.005	0.005	0.006	0.007	0.008	0.009	0.011	0.013	0.016	0.019	0.022	0.025	0.028	0.032	0.036	0.040	0.044	0.048	0.053	0.057	0.062	0.066	0.071	0.075	0.080	0.084	0.089	0.093	0.098	0.102	0.107	0.111	0.116	0.120	0.125	0.129	0.134	0.138	0.142	0.146	0.150	0.154	0.158	0.162	0.166	0.169	0.172	0.175	0.177	0.179	0.181	0.183	0.183	0.184	0.184	0.183	0.182	0.180	0.178	0.175	0.171	0.167	0.162	0.157	0.151	0.144	0.137	0.130	0.122	0.114	0.106	0.097	0.089	0.080	0.071	0.062	0.053	0.045	0.036	0.028	0.020	0.013	0.005	-0.001	-0.008	-0.013	-0.019	-0.023	-0.028	-0.032	-0.035	-0.038	-0.040	-0.042	-0.044	-0.045	-0.046	-0.047	-0.047	-0.047	-0.047	-0.047	-0.047	-0.046	-0.046	-0.045	-0.045	-0.044	-0.044	-0.043	-0.043	-0.042	-0.042	-0.042	-0.041	-0.041	-0.041	-0.041	-0.041	-0.041	-0.041	-0.041	-0.041	-0.041	-0.041	-0.042	-0.042	-0.042	-0.042	-0.043	-0.043	-0.044	-0.044	-0.044	-0.045	-0.045	-0.045	-0.045	-0.045	-0.046	-0.046	-0.046	-0.046	-0.046	-0.046	-0.045	-0.045	-0.045	-0.044	-0.044	-0.044	-0.043	-0.043	-0.042	-0.041	-0.041	-0.040	-0.040	-0.039	-0.038	-0.038	-0.037	-0.037	-0.036	-0.036	-0.035	-0.035	-0.035	-0.035	-0.034	-0.034	-0.034	-0.034	-0.034	-0.034	-0.034	-0.035	-0.035	-0.035	-0.035	-0.035	-0.035	-0.036	-0.036	-0.036	-0.036	-0.036	-0.036	-0.036	-0.035	-0.035	-0.035	-0.035	-0.034	-0.034	-0.033	-0.033	-0.032	-0.032	-0.031	-0.030	-0.030	-0.029	-0.029	-0.029	-0.028	-0.028	-0.028	-0.028	-0.028	-0.028	-0.028	-0.028	-0.028	-0.029	-0.029	-0.030	-0.031	-0.031	-0.032	-0.033	-0.034	-0.035	-0.036	-0.036	-0.037	-0.038	-0.039	-0.040	-0.040	-0.041	-0.041	-0.042	-0.042	-0.042	-0.042	-0.042	-0.042	-0.041	-0.041	-0.040	-0.040	-0.039	-0.038
